# SAXS profile: number of points = 201, q_min = 0, q_max = 0.2, delta_q = 0.001
#    q    intensity    error
0.00000    239734210633.83535767 35960131.59507530
0.00100    239171552841.31533813 129152641.60152087
0.00200    237491981444.93084717 181681371.55830663
0.00300    234720539298.05102539 211248492.89356941
0.00400    230898290054.29638672 207808468.94516453
0.00500    226081476170.21038818 264515337.58898273
0.00600    220340128415.23239136 231357144.25502905
0.00700    213756630512.59167480 359111154.18590993
0.00800    206423745162.87466431 390140894.82956409
0.00900    198442789007.64810181 416729874.73030645
0.01000    189921168823.23327637 407380924.71633971
0.01100    180970439151.48974609 358321485.12102658
0.01200    171703692887.97393799 435268880.55485541
0.01300    162233570917.99526978 476966719.53541553
0.01400    152669781232.19985962 480909832.20062053
0.01500    143117389631.02883911 343481750.40931952
0.01600    133674615269.86541748 409044341.01149440
0.01700    124431630708.88917542 369561959.78347069
0.01800    115468746946.37667847 493628915.40786856
0.01900    106855787105.74530029 384680850.93847430
0.02000    98650988943.33103943 403975817.99705577
0.02100    90900933356.90966797 329970403.04593676
0.02200    83639925665.87768555 346269307.98855942
0.02300    76890789438.58261108 332168225.49443930
0.02400    70664717071.38436890 264992701.10070965
0.02500    64962511188.38912964 380030707.80831605
0.02600    59774996419.09962463 242088746.57007745
0.02700    55084644072.46936035 254491067.27078226
0.02800    50866272816.36643982 265521956.27816510
0.02900    47088975792.40119934 233090440.87454724
0.03000    43716894700.53639221 264268640.61192286
0.03100    40711161523.86591339 234496301.16738206
0.03200    38030775367.80019379 244728050.76351127
0.03300    35634384203.94503021 199908904.60002515
0.03400    33480879949.83335876 210929553.41631970
0.03500    31531101156.38535690 272428726.57140374
0.03600    29748114158.47118759 165102041.20949695
0.03700    28098505714.16091919 192193787.97334602
0.03800    26552437386.06622314 186398119.07660887
0.03900    25084472022.15288925 195658890.83375829
0.04000    23673354854.37146378 174709366.92111436
0.04100    22302542001.52956390 140506021.12441674
0.04200    20959612048.64758682 162227404.78272519
0.04300    19636369743.77317429 155520055.58960751
0.04400    18328317527.63722610 148459378.86860463
0.04500    17034374054.73855782 117537186.43904917
0.04600    15756116533.26892281 122188689.39566962
0.04700    14497572070.79517555 125259028.51720704
0.04800    13264358277.85198402 126740949.24189296
0.04900    12063337329.28601074 117617544.43534128
0.05000    10901908624.88149834 100079525.83672802
0.05100    9787713354.68293762 122150668.35671425
0.05200    8727964228.10027885 83264782.61632134
0.05300    7729363111.33091831 75129412.94450949
0.05400    6797505621.74088669 67295308.79347472
0.05500    5936876749.14943218 54856743.72116837
0.05600    5150567718.84603977 61652298.47153984
0.05700    4440350796.09488297 50220369.84804605
0.05800    3806436521.53518820 33686964.78851191
0.05900    3247814697.88862467 32153367.01084692
0.06000    2762129417.67165661 30328182.42293115
0.06100    2345991803.26368237 26181269.74790907
0.06200    1995009067.94081235 24508687.54527523
0.06300    1704116414.32865429 17995470.17669422
0.06400    1467641248.42108989 17171403.40957695
0.06500    1279723518.15042853 19003895.13349409
0.06600    1134281355.07074261 12539480.96701096
0.06700    1025314839.25655115 10458211.84985023
0.06800    947063887.01938796 12742745.19632205
0.06900    894114461.32991874 14082303.42526437
0.07000    861484778.16353953 11009775.98050101
0.07100    844723621.99596810 12772221.76280132
0.07200    839975528.34815812 11037278.95955599
0.07300    843972478.91792369 10304904.45043024
0.07400    853972907.75104189 11528634.79491873
0.07500    867820991.12061214 9893159.76249194
0.07600    883861305.79463303 13271178.12866720
0.07700    900876601.38347077 12648308.07648421
0.07800    917988199.63371503 13053792.81096491
0.07900    934656425.02994895 12337465.38906848
0.08000    950567940.32471633 16169161.42343594
0.08100    965554274.77632594 15439213.57805374
0.08200    979545820.19520628 18293019.05054888
0.08300    992525244.30618358 13756400.53169914
0.08400    1004490278.04648685 12807251.64624788
0.08500    1015412488.52827942 17028468.23202329
0.08600    1025207895.18200731 13378963.66028763
0.08700    1033739535.96659839 16374435.01861681
0.08800    1040823171.07590306 16673987.98370930
0.08900    1046216189.06851864 16948703.05898549
0.09000    1049659229.70765114 20058988.82199422
0.09100    1050848035.64961839 18852214.64525330
0.09200    1049497710.68432570 23424790.00312829
0.09300    1045350561.90327144 14739443.61547438
0.09400    1038170115.16123796 17752709.80358972
0.09500    1027796498.71684134 19240351.36032743
0.09600    1014141838.93990469 16231340.89523255
0.09700    997180164.61919212 14658549.10904129
0.09800    976986433.11255431 14508249.21386560
0.09900    953718770.65841854 15736360.45582652
0.10000    927588782.22909427 15458267.78280655
0.10100    898906584.66011465 15128598.53135477
0.10200    868040485.00301909 16093471.34893346
0.10300    835378330.99282432 23457424.63773319
0.10400    801362439.41438055 13883604.91600962
0.10500    766444501.59497023 14623761.77847066
0.10600    731023351.02522087 12906217.86963361
0.10700    695560163.62850380 18028920.28964958
0.10800    660418137.19501483 10797837.05130298
0.10900    625949348.84273505 15492247.11301043
0.11000    592451372.86968946 11837178.98710701
0.11100    560169950.98534238 9410855.61955439
0.11200    529278508.74525809 11662652.48924582
0.11300    499920704.32799017 11968102.22507997
0.11400    472187540.52169645 12217853.18626952
0.11500    446093976.67886049 8538239.11568189
0.11600    421650730.05890417 8879964.79321128
0.11700    398831967.15992594 7765258.76630806
0.11800    377557454.59329957 7413340.97009527
0.11900    357776890.19430137 9015978.05756372
0.12000    339406828.59238905 7392281.07495495
0.12100    322377625.86405265 7669364.08059518
0.12200    306602788.34565288 7353868.22492071
0.12300    292018317.82525170 6517849.16094420
0.12400    278563943.45295399 8356918.69734548
0.12500    266200922.13560170 8049916.26469656
0.12600    254897702.10957286 4855801.45400950
0.12700    244606696.23191422 6105383.42567317
0.12800    235313220.99130508 6829966.56116384
0.12900    227010158.50135359 5754707.78924068
0.13000    219662224.98887235 5179635.50937907
0.13100    213248019.06423759 4222310.97650159
0.13200    207734468.81498218 4973163.41786721
0.13300    203090245.88334572 4082114.13469832
0.13400    199258328.38113064 4438479.47394453
0.13500    196181527.20998910 4402313.67815334
0.13600    193778195.03737393 6769641.56282435
0.13700    191971195.97708228 4371184.33851378
0.13800    190662321.90670741 4372840.55913487
0.13900    189773388.53150564 5579337.88593769
0.14000    189186249.56357962 4401418.30367015
0.14100    188812480.97527364 5630388.44822844
0.14200    188550407.90594137 6066609.66050712
0.14300    188318592.52096289 7321827.22256810
0.14400    188032682.02519906 4498682.12965519
0.14500    187632030.22324133 4520055.82129852
0.14600    187068994.73020884 5362332.98690594
0.14700    186289766.51112530 4135633.01165176
0.14800    185287543.56947541 4555294.47356831
0.14900    184033964.69727826 6211146.60158000
0.15000    182546578.18349752 4548148.21003665
0.15100    180832899.73031133 5359887.40091253
0.15200    178924180.51530883 4927572.16390899
0.15300    176826909.54897442 6943993.06566848
0.15400    174595249.88554835 5277141.67682437
0.15500    172242069.34394366 5239603.99671528
0.15600    169809857.29750776 4398924.56089882
0.15700    167321752.60639271 4758630.86871811
0.15800    164799444.99701437 5109607.03329936
0.15900    162255382.34651142 6230606.97619436
0.16000    159711328.98570380 5399840.28789225
0.16100    157159691.40848431 4582776.81779797
0.16200    154605246.95443812 4914128.00642341
0.16300    152029885.80150872 5609903.05090702
0.16400    149446281.62608272 4808434.33832341
0.16500    146830126.06298974 4387284.37389162
0.16600    144188384.51646715 5779070.72426746
0.16700    141500439.94296649 4635554.63139802
0.16800    138774522.57975763 4925108.03890146
0.16900    136023719.57688475 4162326.01558960
0.17000    133254597.38070865 4443374.75947449
0.17100    130491545.20226133 4040018.43023694
0.17200    127763356.04420274 4310097.01968645
0.17300    125107304.01790027 3265300.78906931
0.17400    122567239.40585977 3860868.22361808
0.17500    120184267.09844181 3172864.80124558
0.17600    118003861.90517439 3133002.68155128
0.17700    116086121.02116112 3719399.49318751
0.17800    114464044.92065018 3380695.72640876
0.17900    113198492.98578319 5195811.07346418
0.18000    112307459.02129969 5183551.01597329
0.18100    111836204.55010596 3969067.08696799
0.18200    111774788.00073807 5829614.34355723
0.18300    112156852.12066789 4024188.04418943
0.18400    112958508.51066577 4701898.13887745
0.18500    114172044.37019648 3822480.22609612
0.18600    115761574.57411070 3896534.78425032
0.18700    117693449.10144378 3318955.42146411
0.18800    119908704.91447806 4759176.72290836
0.18900    122360573.02021238 3487276.49584102
0.19000    124976720.69242842 4296699.86041948
0.19100    127708071.35957813 3677992.62894125
0.19200    130463701.70542170 4154616.77712040
0.19300    133203571.64540529 3876224.11804303
0.19400    135847137.53725863 4768234.75287533
0.19500    138351259.57532951 6101290.83558923
0.19600    140669110.52284792 6650835.85981444
0.19700    142760029.42145142 7207954.22611943
0.19800    144590975.49798870 4316040.82258574
0.19900    146155777.93586242 6138542.96341353
0.20000    147432433.39522445 8001158.53850273
